Time,Obstacle Distance,Obstacle Height,Obstacle Size,Velocity,Dino Jumping,Dino Ducking,Action
1572.0845947265625,1353.0,1031.0,1312.0,1002.0,1002.0
1641.0350341796875,1453.0,1131.0,1413.0,1102.0,1102.0
1709.8854370117188,1553.0,1231.0,1514.0,1202.0,1202.0
1778.6358032226562,1653.0,1331.0,1615.0,1302.0,1302.0
1847.2861633300781,1753.0,1431.0,1716.0,1402.0,1402.0
1915.8366088867188,1853.0,1531.0,1817.0,1502.0,1502.0
1984.2870483398438,1953.0,1631.0,1918.0,1602.0,1602.0
2052.637451171875,2053.0,1731.0,2019.0,1702.0,1702.0
2120.8878479003906,2153.0,1831.0,2120.0,1802.0,1802.0
2189.038299560547,2253.0,1931.0,2221.0,1902.0,1902.0
2257.0887451171875,2353.0,2031.0,2322.0,2002.0,2002.0
2325.0391998291016,2453.0,2131.0,2423.0,2102.0,2102.0
2392.889633178711,2553.0,2231.0,2524.0,2202.0,2202.0
2460.6400756835938,2653.0,2331.0,2625.0,2302.0,2302.0
2528.290512084961,2753.0,2431.0,2726.0,2402.0,2402.0
2555.3494720458984,2794.0,2472.0,2767.4299926757812,2444.0,2443.0
2595.8409729003906,2853.0,2531.0,2827.0,2503.0,2502.0
2663.2914505004883,2953.0,2631.0,2928.0,2603.0,2602.0
2730.641929626465,3053.0,2731.0,3029.0,2703.0,2702.0
3078.617431640625,3122.0,2832.0,3130.0,2803.0,2802.0
3145.7678833007812,3222.0,2932.0,3231.0,2903.0,2902.0
3213.1480712890625,3322.0,3032.0,3332.0,3003.0,3002.0
3280.0985260009766,3422.0,3132.0,3433.0,3103.0,3102.0
3346.948989868164,3522.0,3232.0,3534.0,3203.0,3202.0
3356.635787963867,3537.0,3247.0,3549.1600036621094,3218.0,3218.0
3413.6994857788086,3622.0,3332.0,3635.0,3302.0,3303.0
3480.3499298095703,3722.0,3432.0,3736.0,3402.0,3403.0
3613.3508672714233,3922.0,3632.0,3938.0,3602.0,3603.0
4081.029815673828,4048.0,3736.0,4039.0,3702.0,3703.0
4147.280242919922,4148.0,3836.0,4140.0,3802.0,3803.0
4213.768829345703,4248.0,3936.0,4241.0,3902.0,3903.0
4279.819274902344,4348.0,4036.0,4342.0,4002.0,4002.0
4345.769775390625,4448.0,4136.0,4443.0,4102.0,4102.0
4411.620223999023,4548.0,4236.0,4544.0,4202.0,4202.0
4477.370697021484,4648.0,4336.0,4645.0,4302.0,4302.0
4527.899078369141,4726.0,4414.0,4723.799987792969,4381.0,4380.0
4543.02116394043,4748.0,4436.0,4746.0,4403.0,4402.0
4608.571624755859,4848.0,4536.0,4847.0,4503.0,4502.0
4674.022102355957,4948.0,4636.0,4948.0,4603.0,4602.0
4739.372585296631,5048.0,4736.0,5049.0,4703.0,4702.0
4804.623025894165,5148.0,4836.0,5150.0,4803.0,4802.0
5473.312255859375,5222.0,4932.0,5251.0,4903.0,4902.0
5538.712463378906,5322.0,5032.0,5352.0,5003.0,5002.0
5603.662933349609,5422.0,5132.0,5453.0,5103.0,5102.0
5668.513366699219,5522.0,5232.0,5554.0,5202.0,5202.0
5733.2637939453125,5622.0,5332.0,5655.0,5302.0,5302.0
5797.914276123047,5722.0,5432.0,5756.0,5402.0,5402.0
5862.4647216796875,5822.0,5532.0,5857.0,5502.0,5502.0
5926.915130615234,5922.0,5632.0,5958.0,5602.0,5602.0
5991.265594482422,6022.0,5732.0,6059.0,5702.0,5702.0
6055.516067504883,6122.0,5832.0,6160.0,5802.0,5802.0
6119.66650390625,6222.0,5932.0,6261.0,5902.0,5902.0
6183.716949462891,6322.0,6032.0,6362.0,6002.0,6002.0
6192.95573425293,6337.0,6047.0,6377.160003662109,6017.0,6018.0
6247.667388916016,6422.0,6132.0,6463.0,6102.0,6103.0
6311.517883300781,6522.0,6232.0,6564.0,6202.0,6203.0
6375.268341064453,6622.0,6332.0,6665.0,6302.0,6303.0
6438.918811798096,6722.0,6432.0,6766.0,6402.0,6403.0
6502.469291120768,6822.0,6532.0,6867.0,6502.0,6503.0
6939.904388427734,6922.0,6632.0,6968.0,6602.0,6603.0
7003.6214599609375,7022.0,6732.0,7069.0,6702.0,6702.0
7066.871917724609,7122.0,6832.0,7170.0,6802.0,6802.0
7130.022399902344,7222.0,6932.0,7271.0,6902.0,6902.0
7193.072891235352,7322.0,7032.0,7372.0,7002.0,7002.0
7256.023345947266,7422.0,7132.0,7473.0,7102.0,7102.0
7294.630767822266,7484.0,7194.0,7535.6300048828125,7164.0,7165.0
7318.8737869262695,7522.0,7232.0,7574.0,7202.0,7203.0
7381.624237060547,7622.0,7332.0,7675.0,7302.0,7303.0
7444.274715423584,7722.0,7432.0,7776.0,7402.0,7403.0
7443.900714874268,7722.0,7432.0,7776.0,7402.0,7403.0
7506.825164794922,7822.0,7532.0,7877.0,7502.0,7503.0
8191.4696044921875,7952.0,7632.0,7978.0,7602.0,7603.0
8254.196716308594,8052.0,7732.0,8079.0,7702.0,7703.0
8316.447204589844,8152.0,7832.0,8180.0,7802.0,7802.0
8378.597625732422,8252.0,7932.0,8281.0,7902.0,7902.0
8440.64810180664,8352.0,8032.0,8382.0,8002.0,8002.0
8502.598571777344,8452.0,8132.0,8483.0,8102.0,8102.0
8564.449035644531,8552.0,8232.0,8584.0,8202.0,8202.0
8626.199493408203,8652.0,8332.0,8685.0,8302.0,8302.0
8687.84994506836,8752.0,8432.0,8786.0,8402.0,8402.0
8749.400405883789,8852.0,8532.0,8887.0,8502.0,8502.0
8810.850845336914,8952.0,8632.0,8988.0,8602.0,8602.0
8865.910018920898,9043.0,8723.0,9079.929992675781,8694.0,8693.0
8872.201293945312,9052.0,8732.0,9089.0,8703.0,8702.0
8933.451721191406,9152.0,8832.0,9190.0,8803.0,8802.0
8994.602157592773,9252.0,8932.0,9291.0,8903.0,8902.0
9055.652599334717,9352.0,9032.0,9392.0,9003.0,9002.0
9116.603048324585,9452.0,9132.0,9493.0,9103.0,9102.0
9733.526336669922,9642.0,9342.0,9695.0,9303.0,9302.0
9794.176818847656,9742.0,9442.0,9796.0,9403.0,9402.0
9854.727264404297,9842.0,9542.0,9897.0,9502.0,9502.0
9915.177734375,9942.0,9642.0,9998.0,9602.0,9602.0
9975.528198242188,10042.0,9742.0,10099.0,9702.0,9702.0
10035.77864074707,10142.0,9842.0,10200.0,9802.0,9802.0
10095.929092407227,10242.0,9942.0,10301.0,9902.0,9902.0
10155.979537963867,10342.0,10042.0,10402.0,10002.0,10002.0
10215.930000305176,10442.0,10142.0,10503.0,10102.0,10102.0
10216.32593536377,10444.0,10144.0,10505.040008544922,10105.0,10104.0
10275.780433654785,10542.0,10242.0,10604.0,10203.0,10202.0
10335.530906677246,10642.0,10342.0,10705.0,10303.0,10302.0
11058.978881835938,10722.0,10432.0,10806.0,10403.0,10402.0
11118.529296875,10822.0,10532.0,10907.0,10503.0,10502.0
11178.385070800781,10922.0,10632.0,11008.0,10603.0,10602.0
11237.735473632812,11022.0,10732.0,11109.0,10703.0,10702.0
11296.985961914062,11122.0,10832.0,11210.0,10803.0,10802.0
11356.136444091797,11222.0,10932.0,11311.0,10903.0,10902.0
11415.186889648438,11322.0,11032.0,11412.0,11002.0,11002.0
11474.13735961914,11422.0,11132.0,11513.0,11102.0,11102.0
11532.987823486328,11522.0,11232.0,11614.0,11202.0,11202.0
11591.73828125,11622.0,11332.0,11715.0,11302.0,11302.0
11650.388702392578,11722.0,11432.0,11816.0,11402.0,11402.0
11708.93911743164,11822.0,11532.0,11917.0,11502.0,11502.0
11767.389541625977,11922.0,11632.0,12018.0,11602.0,11602.0
11798.494674682617,11976.0,11686.0,12072.549987792969,11656.0,11657.0
11825.739990234375,12022.0,11732.0,12119.0,11702.0,11703.0
11883.99047088623,12122.0,11832.0,12220.0,11802.0,11803.0
11942.140926361084,12222.0,11932.0,12321.0,11902.0,11903.0
12455.269927978516,12322.0,12032.0,12422.0,12002.0,12003.0
12513.220336914062,12422.0,12132.0,12523.0,12102.0,12103.0
12571.4921875,12522.0,12232.0,12624.0,12202.0,12202.0
12629.24267578125,12622.0,12332.0,12725.0,12302.0,12302.0
12686.893096923828,12722.0,12432.0,12826.0,12402.0,12402.0
12744.443572998047,12822.0,12532.0,12927.0,12502.0,12502.0
12801.893997192383,12922.0,12632.0,13028.0,12602.0,12602.0
12859.24447631836,13022.0,12732.0,13129.0,12702.0,12702.0
12890.88949584961,13078.0,12788.0,13185.570007324219,12758.0,12759.0
12916.494941711426,13122.0,12832.0,13230.0,12802.0,12803.0
12973.645393371582,13222.0,12932.0,13331.0,12902.0,12903.0
13030.695854187012,13322.0,13032.0,13432.0,13002.0,13003.0
13550.802001953125,13422.0,13132.0,13533.0,13102.0,13103.0
13607.652465820312,13522.0,13232.0,13634.0,13202.0,13203.0
13664.8349609375,13622.0,13332.0,13735.0,13302.0,13303.0
13721.485412597656,13722.0,13432.0,13836.0,13402.0,13402.0
13778.035888671875,13822.0,13532.0,13937.0,13502.0,13502.0
13834.486312866211,13922.0,13632.0,14038.0,13602.0,13602.0
13890.83676147461,14022.0,13732.0,14139.0,13702.0,13702.0
13947.087173461914,14122.0,13832.0,14240.0,13802.0,13802.0
13989.331832885742,14198.0,13908.0,14316.769989013672,13878.0,13879.0
14003.237571716309,14222.0,13932.0,14341.0,13902.0,13903.0
14059.28797531128,14322.0,14032.0,14442.0,14002.0,14003.0
14115.238344192505,14422.0,14132.0,14543.0,14102.0,14103.0
14549.342224121094,14522.0,14232.0,14644.0,14202.0,14203.0
14605.535217285156,14622.0,14332.0,14745.0,14302.0,14303.0
14661.629516601562,14722.0,14432.0,14846.0,14402.0,14402.0
14717.18081665039,14822.0,14532.0,14947.0,14502.0,14502.0
14772.186126708984,14922.0,14632.0,15048.0,14602.0,14602.0
14827.536392211914,15022.0,14732.0,15149.0,14702.0,14702.0
14836.488822937012,15039.0,14749.0,15166.179992675781,14719.0,14720.0
14882.786643981934,15122.0,14832.0,15250.0,14802.0,14803.0
14937.936904907227,15222.0,14932.0,15351.0,14902.0,14903.0
15385.730926513672,15322.0,15032.0,15452.0,15002.0,15003.0
15495.982482910156,15522.0,15232.0,15654.0,15202.0,15202.0
15551.18569946289,15622.0,15332.0,15755.0,15302.0,15302.0
15605.8369140625,15722.0,15432.0,15856.0,15402.0,15402.0
15659.93310546875,15822.0,15532.0,15957.0,15502.0,15502.0
15714.839256286621,15922.0,15632.0,16058.0,15602.0,15602.0
15739.940269470215,15969.0,15679.0,16105.480010986328,15649.0,15650.0
16511.292541503906,16247.0,15937.0,16361.0,15902.0,15903.0
16620.21435546875,16447.0,16137.0,16563.0,16102.0,16102.0
16727.816619873047,16647.0,16337.0,16765.0,16302.0,16302.0
16835.01889038086,16847.0,16537.0,16967.0,16502.0,16502.0
16941.821182250977,17047.0,16737.0,17169.0,16702.0,16702.0
16995.072326660156,17147.0,16837.0,17270.0,16802.0,16802.0
17047.754455566406,17247.0,16937.0,17371.0,16902.0,16902.0
17074.94440460205,17300.0,16990.0,17424.54998779297,16956.0,16955.0
17100.804580688477,17347.0,17037.0,17472.0,17003.0,17002.0
17154.22571182251,17447.0,17137.0,17573.0,17103.0,17102.0
17206.604842185974,17547.0,17237.0,17674.0,17203.0,17202.0
17873.51580810547,17622.0,17332.0,17775.0,17303.0,17302.0
17927.586669921875,17722.0,17432.0,17876.0,17403.0,17402.0
17980.137756347656,17822.0,17532.0,17977.0,17503.0,17502.0
18032.112884521484,17922.0,17632.0,18078.0,17603.0,17602.0
18136.713134765625,18122.0,17832.0,18280.0,17802.0,17802.0
18188.86328125,18222.0,17932.0,18381.0,17902.0,17902.0
18241.39338684082,18322.0,18032.0,18482.0,18002.0,18002.0
18292.863525390625,18422.0,18132.0,18583.0,18102.0,18102.0
18315.208450317383,18466.0,18176.0,18627.45001220703,18146.0,18147.0
18448.597900390625,18722.0,18432.0,18886.0,18402.0,18403.0
19194.29315185547,18851.0,18533.0,18987.0,18502.0,18503.0
19245.743286132812,18951.0,18633.0,19088.0,18602.0,18603.0
19298.06573486328,19051.0,18733.0,19189.0,18702.0,18702.0
19349.315856933594,19151.0,18833.0,19290.0,18802.0,18802.0
19400.46597290039,19251.0,18933.0,19391.0,18902.0,18902.0
19553.808319091797,19551.0,19233.0,19694.0,19202.0,19202.0
19756.212829589844,19951.0,19633.0,20098.0,19602.0,19602.0
19761.268005371094,19963.0,19645.0,20110.140014648438,19615.0,19614.0
19806.563941955566,20051.0,19733.0,20199.0,19703.0,19702.0
19856.815071105957,20151.0,19833.0,20300.0,19803.0,19802.0
19906.467202186584,20251.0,19933.0,20401.0,19903.0,19902.0
20778.72314453125,20422.0,20132.0,20603.0,20103.0,20102.0
20927.976623535156,20722.0,20432.0,20906.0,20403.0,20402.0
21075.823181152344,21022.0,20732.0,21209.0,20702.0,20702.0
21125.581329345703,21122.0,20832.0,21310.0,20802.0,20802.0
21146.220184326172,21165.0,20875.0,21353.440002441406,20845.0,20846.0
21223.783737182617,21322.0,21032.0,21512.0,21002.0,21003.0
21272.22396850586,21422.0,21132.0,21613.0,21102.0,21103.0
21418.47472000122,21722.0,21432.0,21916.0,21402.0,21403.0
22242.54461669922,21822.0,21532.0,22017.0,21502.0,21503.0
22339.86065673828,22022.0,21732.0,22219.0,21702.0,21702.0
22388.629028320312,22122.0,21832.0,22320.0,21802.0,21802.0
22436.261352539062,22222.0,21932.0,22421.0,21902.0,21902.0
22484.31167602539,22322.0,22032.0,22522.0,22002.0,22002.0
22532.26202392578,22422.0,22132.0,22623.0,22102.0,22102.0
22580.634368896484,22522.0,22232.0,22724.0,22202.0,22202.0
22627.86279296875,22622.0,22332.0,22825.0,22302.0,22302.0
22675.51318359375,22722.0,22432.0,22926.0,22402.0,22402.0
22723.0636138916,22822.0,22532.0,23027.0,22502.0,22502.0
22770.514099121094,22922.0,22632.0,23128.0,22602.0,22602.0
22811.660903930664,23010.0,22720.0,23216.890014648438,22690.0,22691.0
22817.86456298828,23022.0,22732.0,23229.0,22702.0,22703.0
22865.115032196045,23122.0,22832.0,23330.0,22802.0,22803.0
22912.265482902527,23222.0,22932.0,23431.0,22902.0,22903.0
23675.65802001953,23322.0,23032.0,23532.0,23002.0,23003.0
23723.13885498047,23422.0,23132.0,23633.0,23102.0,23103.0
23769.989318847656,23522.0,23232.0,23734.0,23202.0,23203.0
23816.739807128906,23622.0,23332.0,23835.0,23302.0,23302.0
23863.390228271484,23722.0,23432.0,23936.0,23402.0,23402.0
23909.940704345703,23822.0,23532.0,24037.0,23502.0,23502.0
23956.391143798828,23922.0,23632.0,24138.0,23602.0,23602.0
24002.74154663086,24022.0,23732.0,24239.0,23702.0,23702.0
24048.99200439453,24122.0,23832.0,24340.0,23802.0,23802.0
24121.78466796875,24281.0,23991.0,24500.599975585938,23961.0,23962.0
24141.19285583496,24322.0,24032.0,24542.0,24002.0,24003.0
24187.14333343506,24422.0,24132.0,24643.0,24102.0,24103.0
24232.9937915802,24522.0,24232.0,24744.0,24202.0,24203.0
25071.436279296875,24650.0,24334.0,24845.0,24302.0,24303.0
25117.630432128906,24750.0,24434.0,24946.0,24402.0,24403.0
25208.631286621094,24950.0,24634.0,25148.0,24602.0,24602.0
25253.98175048828,25050.0,24734.0,25249.0,24702.0,24702.0
25299.232177734375,25150.0,24834.0,25350.0,24802.0,24802.0
25344.382568359375,25250.0,24934.0,25451.0,24902.0,24902.0
25389.433044433594,25350.0,25034.0,25552.0,25002.0,25002.0
25434.383514404297,25450.0,25134.0,25653.0,25102.0,25102.0
25479.233978271484,25550.0,25234.0,25754.0,25202.0,25202.0
25523.984436035156,25650.0,25334.0,25855.0,25302.0,25302.0
25568.634887695312,25750.0,25434.0,25956.0,25402.0,25402.0
25599.61183166504,25822.0,25506.0,26028.739990234375,25475.0,25474.0
25613.185333251953,25850.0,25534.0,26057.0,25503.0,25502.0
25657.635772705078,25950.0,25634.0,26158.0,25603.0,25602.0
26502.3486328125,26022.0,25732.0,26259.0,25703.0,25702.0
26546.599060058594,26122.0,25832.0,26360.0,25803.0,25802.0
26591.3076171875,26222.0,25932.0,26461.0,25903.0,25902.0
26635.35809326172,26322.0,26032.0,26562.0,26003.0,26002.0
26679.308532714844,26422.0,26132.0,26663.0,26103.0,26102.0
26723.15899658203,26522.0,26232.0,26764.0,26203.0,26202.0
26766.909423828125,26622.0,26332.0,26865.0,26302.0,26302.0
26810.55987548828,26722.0,26432.0,26966.0,26402.0,26402.0
26854.1103515625,26822.0,26532.0,27067.0,26502.0,26502.0
26897.560760498047,26922.0,26632.0,27168.0,26602.0,26602.0
26940.911209106445,27022.0,26732.0,27269.0,26702.0,26702.0
26984.161666870117,27122.0,26832.0,27370.0,26802.0,26802.0
26987.04930114746,27130.0,26840.0,27378.09002685547,26810.0,26811.0
27027.312133789062,27222.0,26932.0,27471.0,26902.0,26903.0
27070.362602233887,27322.0,27032.0,27572.0,27002.0,27003.0
27113.31308078766,27422.0,27132.0,27673.0,27102.0,27103.0
27687.541473388672,27561.0,27223.0,27774.0,27202.0,27203.0
27731.436431884766,27661.0,27323.0,27875.0,27302.0,27303.0
27774.086883544922,27761.0,27423.0,27976.0,27402.0,27402.0
27816.637329101562,27861.0,27523.0,28077.0,27502.0,27502.0
27859.08773803711,27961.0,27623.0,28178.0,27602.0,27602.0
27901.43817138672,28061.0,27723.0,28279.0,27702.0,27702.0
27941.266555786133,28158.0,27820.0,28376.989990234375,27800.0,27799.0
27943.688568115234,28161.0,27823.0,28380.0,27803.0,27802.0
27985.839027404785,28261.0,27923.0,28481.0,27903.0,27902.0
28027.889497756958,28361.0,28023.0,28582.0,28003.0,28002.0
28847.869262695312,28442.0,28142.0,28683.0,28103.0,28102.0
28890.301208496094,28542.0,28242.0,28784.0,28203.0,28202.0
28932.051635742188,28642.0,28342.0,28885.0,28303.0,28302.0
28973.702087402344,28742.0,28442.0,28986.0,28403.0,28402.0
29015.252563476562,28842.0,28542.0,29087.0,28503.0,28502.0
29056.70297241211,28942.0,28642.0,29188.0,28602.0,28602.0
29098.05340576172,29042.0,28742.0,29289.0,28702.0,28702.0
29139.30386352539,29142.0,28842.0,29390.0,28802.0,28802.0
29180.454315185547,29242.0,28942.0,29491.0,28902.0,28902.0
29221.5047454834,29342.0,29042.0,29592.0,29002.0,29002.0
29262.4552154541,29442.0,29142.0,29693.0,29102.0,29102.0
29261.273193359375,29442.0,29142.0,29693.02001953125,29103.0,29102.0
29303.305625915527,29542.0,29242.0,29794.0,29203.0,29202.0
29344.056079864502,29642.0,29342.0,29895.0,29303.0,29302.0
29916.44012451172,29760.0,29424.0,29996.0,29403.0,29402.0
29957.58529663086,29860.0,29524.0,30097.0,29503.0,29502.0
29998.035736083984,29960.0,29624.0,30198.0,29603.0,29602.0
30038.386169433594,30060.0,29724.0,30299.0,29703.0,29702.0
30078.636596679688,30160.0,29824.0,30400.0,29803.0,29802.0
30118.787063598633,30260.0,29924.0,30501.0,29903.0,29902.0
30158.837524414062,30360.0,30024.0,30602.0,30002.0,30002.0
30175.227172851562,30404.0,30068.0,30646.460021972656,30047.0,30046.0
30198.788009643555,30460.0,30124.0,30703.0,30103.0,30102.0
30238.638481140137,30560.0,30224.0,30804.0,30203.0,30202.0
30969.03271484375,30722.0,30432.0,31006.0,30403.0,30402.0
31008.58316040039,30822.0,30532.0,31107.0,30503.0,30502.0
31048.033599853516,30922.0,30632.0,31208.0,30603.0,30602.0
31087.384063720703,31022.0,30732.0,31309.0,30703.0,30702.0
31126.634521484375,31122.0,30832.0,31410.0,30803.0,30802.0
31165.78497314453,31222.0,30932.0,31511.0,30902.0,30902.0
31183.932189941406,31270.0,30980.0,31559.489990234375,30950.0,30951.0
31204.83543395996,31322.0,31032.0,31612.0,31002.0,31003.0
31243.785919189453,31422.0,31132.0,31713.0,31102.0,31103.0
31282.636352539062,31522.0,31232.0,31814.0,31202.0,31203.0
31321.386812210083,31622.0,31332.0,31915.0,31302.0,31303.0
31933.853881835938,31760.0,31424.0,32016.0,31402.0,31403.0
31973.018615722656,31860.0,31524.0,32117.0,31502.0,31503.0
32011.46908569336,31960.0,31624.0,32218.0,31602.0,31602.0
32049.81951904297,32060.0,31724.0,32319.0,31702.0,31702.0
32088.069915771484,32160.0,31824.0,32420.0,31802.0,31802.0
32126.22038269043,32260.0,31924.0,32521.0,31902.0,31902.0
32164.27081298828,32360.0,32024.0,32622.0,32002.0,32002.0
32175.94450378418,32394.0,32058.0,32656.359985351562,32037.0,32036.0
32202.221282958984,32460.0,32124.0,32723.0,32103.0,32102.0
32240.071739196777,32560.0,32224.0,32824.0,32203.0,32202.0
33074.258056640625,32622.0,32332.0,32925.0,32303.0,32302.0
33112.53210449219,32722.0,32432.0,33026.0,32403.0,32402.0
33150.082580566406,32822.0,32532.0,33127.0,32503.0,32502.0
33187.53302001953,32922.0,32632.0,33228.0,32603.0,32602.0
33224.883544921875,33022.0,32732.0,33329.0,32703.0,32702.0
33262.13400268555,33122.0,32832.0,33430.0,32803.0,32802.0
33299.28448486328,33222.0,32932.0,33531.0,32902.0,32902.0
33336.33493041992,33322.0,33032.0,33632.0,33002.0,33002.0
33373.28536987305,33422.0,33132.0,33733.0,33102.0,33102.0
33410.13578796387,33522.0,33232.0,33834.0,33202.0,33202.0
33412.71157836914,33529.0,33239.0,33841.080017089844,33209.0,33210.0
33446.88621520996,33622.0,33332.0,33935.0,33302.0,33303.0
33483.53660583496,33722.0,33432.0,34036.0,33402.0,33403.0
33520.08696556091,33822.0,33532.0,34137.0,33502.0,33503.0
34304.02227783203,33955.0,33629.0,34238.0,33602.0,33603.0
34340.372802734375,34055.0,33729.0,34339.0,33702.0,33703.0
34376.62316894531,34155.0,33829.0,34440.0,33802.0,33802.0
34412.773498535156,34255.0,33929.0,34541.0,33902.0,33902.0
34484.77407836914,34455.0,34129.0,34743.0,34102.0,34102.0
34546.87530517578,34632.0,34306.0,34921.789978027344,34280.0,34279.0
34556.37455749512,34655.0,34329.0,34945.0,34303.0,34302.0
34592.02476501465,34755.0,34429.0,35046.0,34403.0,34402.0
35364.09405517578,35022.0,34732.0,35349.0,34703.0,34702.0
35401.28796386719,35122.0,34832.0,35450.0,34803.0,34802.0
35436.439208984375,35222.0,34932.0,35551.0,34903.0,34902.0
35470.840393066406,35322.0,35032.0,35652.0,35003.0,35002.0
35506.44152832031,35422.0,35132.0,35753.0,35102.0,35102.0
35541.29263305664,35522.0,35232.0,35854.0,35202.0,35202.0
35576.04376220703,35622.0,35332.0,35955.0,35302.0,35302.0
35603.118896484375,35702.0,35412.0,36035.809997558594,35382.0,35383.0
35610.04090881348,35722.0,35432.0,36056.0,35402.0,35403.0
35645.246017456055,35822.0,35532.0,36157.0,35502.0,35503.0
35679.697120666504,35922.0,35632.0,36258.0,35602.0,35603.0
